Au Rho=19.32, Sig=0.nm, P=1., 0.5deg
 Photon Energy (eV), Reflectivity
   30.0000  0.984043
   129.700  0.985504
   229.400  0.912688
   329.100  0.898114
   428.800  0.895501
   528.500  0.891830
   628.200  0.888110
   727.900  0.887671
   827.600  0.886991
   927.300  0.888763
   1027.00  0.891434
   1126.70  0.895885
   1226.40  0.898172
   1326.10  0.898604
   1425.80  0.899745
   1525.50  0.901076
   1625.20  0.901617
   1724.90  0.901005
   1824.60  0.898258
   1924.30  0.894833
   2024.00  0.890132
   2123.70  0.881049
   2223.40  0.811767
   2323.10  0.655870
   2422.80  0.682221
   2522.50  0.701065
   2622.20  0.709567
   2721.90  0.697755
   2821.60  0.697825
   2921.30  0.709046
   3021.00  0.716731
   3120.70  0.719915
   3220.40  0.715914
   3320.10  0.722582
   3419.80  0.723974
   3519.50  0.727266
   3619.20  0.732946
   3718.90  0.736316
   3818.60  0.739299
   3918.30  0.742226
   4018.00  0.744659
   4117.70  0.747100
   4217.40  0.749925
   4317.10  0.749695
   4416.80  0.751233
   4516.50  0.752437
   4616.20  0.753409
   4715.90  0.754255
   4815.60  0.754833
   4915.30  0.755009
   5015.00  0.754863
   5114.70  0.754576
   5214.40  0.754665
   5314.10  0.753043
   5413.80  0.754160
   5513.50  0.753935
   5613.20  0.753560
   5712.90  0.752903
   5812.60  0.751883
   5912.30  0.751792
   6012.00  0.750442
   6111.70  0.749558
   6211.40  0.748580
   6311.10  0.747328
   6410.80  0.745874
   6510.50  0.744210
   6610.20  0.742319
   6709.90  0.740184
   6809.60  0.737783
   6909.30  0.735094
   7009.00  0.732088
   7108.70  0.728734
   7208.40  0.724992
   7308.10  0.720808
   7407.80  0.716122
   7507.50  0.710877
   7607.20  0.704993
   7706.90  0.698361
   7806.60  0.690853
   7906.30  0.682308
   8006.00  0.672524
   8105.70  0.661248
   8205.40  0.648147
   8305.10  0.632778
   8404.80  0.614551
   8504.50  0.592728
   8604.20  0.566387
   8703.90  0.534516
   8803.60  0.496422
   8903.30  0.452608
   9003.00  0.405536
   9102.70  0.359026
   9202.40  0.316438
   9302.10  0.279251
   9401.80  0.247443
   9501.50  0.220448
   9601.20  0.197500
   9700.90  0.177841
   9800.60  0.160923
   9900.30  0.146252
   10000.0  0.133420
